#  RAINFALL_RUNOFF_FILE                                                         
#  site=  08057320  Ash  Creek  at  Highland  Road,  Dallas,  Tex.              
#  latitude=  36()48'18"                                                        
#  longitude=  96()43'04"                                                       
#  drainage_area(mi2)=  6.92                                                    
# TIME(MIN) ACC_PRECIP(IN) ACC_RUNOFF(IN)                                       
 0.00000       0.00000      0.170000E-02                                        
 1.00000      0.666667E-03  0.194667E-02                                        
 2.00000      0.133333E-02  0.219333E-02                                        
 3.00000      0.200000E-02  0.244000E-02                                        
 4.00000      0.266667E-02  0.268667E-02                                        
 5.00000      0.333333E-02  0.293333E-02                                        
 6.00000      0.400000E-02  0.318000E-02                                        
 7.00000      0.466667E-02  0.342667E-02                                        
 8.00000      0.533333E-02  0.367333E-02                                        
 9.00000      0.600000E-02  0.392000E-02                                        
 10.0000      0.666667E-02  0.416667E-02                                        
 11.0000      0.733333E-02  0.441333E-02                                        
 12.0000      0.800000E-02  0.466000E-02                                        
 13.0000      0.866667E-02  0.490667E-02                                        
 14.0000      0.933333E-02  0.515333E-02                                        
 15.0000      0.100000E-01  0.540000E-02                                        
 16.0000      0.120000E-01  0.566667E-02                                        
 17.0000      0.140000E-01  0.593333E-02                                        
 18.0000      0.160000E-01  0.620000E-02                                        
 19.0000      0.180000E-01  0.646667E-02                                        
 20.0000      0.200000E-01  0.673333E-02                                        
 21.0000      0.220000E-01  0.700000E-02                                        
 22.0000      0.240000E-01  0.726667E-02                                        
 23.0000      0.260000E-01  0.753333E-02                                        
 24.0000      0.280000E-01  0.780000E-02                                        
 25.0000      0.300000E-01  0.806667E-02                                        
 26.0000      0.320000E-01  0.833333E-02                                        
 27.0000      0.340000E-01  0.860000E-02                                        
 28.0000      0.360000E-01  0.886667E-02                                        
 29.0000      0.380000E-01  0.913333E-02                                        
 30.0000      0.400000E-01  0.940000E-02                                        
 31.0000      0.426667E-01  0.966667E-02                                        
 32.0000      0.453333E-01  0.993333E-02                                        
 33.0000      0.480000E-01  0.102000E-01                                        
 34.0000      0.506667E-01  0.104667E-01                                        
 35.0000      0.533333E-01  0.107333E-01                                        
 36.0000      0.560000E-01  0.110000E-01                                        
 37.0000      0.586667E-01  0.112667E-01                                        
 38.0000      0.613333E-01  0.115333E-01                                        
 39.0000      0.640000E-01  0.118000E-01                                        
 40.0000      0.666667E-01  0.120667E-01                                        
 41.0000      0.693333E-01  0.123333E-01                                        
 42.0000      0.720000E-01  0.126000E-01                                        
 43.0000      0.746667E-01  0.128667E-01                                        
 44.0000      0.773333E-01  0.131333E-01                                        
 45.0000      0.800000E-01  0.134000E-01                                        
 46.0000      0.826667E-01  0.136667E-01                                        
 47.0000      0.853333E-01  0.139333E-01                                        
 48.0000      0.880000E-01  0.142000E-01                                        
 49.0000      0.906667E-01  0.144667E-01                                        
 50.0000      0.933333E-01  0.147333E-01                                        
 51.0000      0.960000E-01  0.150000E-01                                        
 52.0000      0.986667E-01  0.152667E-01                                        
 53.0000      0.101333      0.155333E-01                                        
 54.0000      0.104000      0.158000E-01                                        
 55.0000      0.106667      0.160667E-01                                        
 56.0000      0.109333      0.163333E-01                                        
 57.0000      0.112000      0.166000E-01                                        
 58.0000      0.114667      0.168667E-01                                        
 59.0000      0.117333      0.171333E-01                                        
 60.0000      0.120000      0.174000E-01                                        
 61.0000      0.122000      0.176867E-01                                        
 62.0000      0.124000      0.179733E-01                                        
 63.0000      0.126000      0.182600E-01                                        
 64.0000      0.128000      0.185467E-01                                        
 65.0000      0.130000      0.188333E-01                                        
 66.0000      0.132000      0.191200E-01                                        
 67.0000      0.134000      0.194067E-01                                        
 68.0000      0.136000      0.196933E-01                                        
 69.0000      0.138000      0.199800E-01                                        
 70.0000      0.140000      0.202667E-01                                        
 71.0000      0.142000      0.205533E-01                                        
 72.0000      0.144000      0.208400E-01                                        
 73.0000      0.146000      0.211267E-01                                        
 74.0000      0.148000      0.214133E-01                                        
 75.0000      0.150000      0.217000E-01                                        
 76.0000      0.152000      0.220333E-01                                        
 77.0000      0.154000      0.223667E-01                                        
 78.0000      0.156000      0.227000E-01                                        
 79.0000      0.158000      0.230333E-01                                        
 80.0000      0.160000      0.233667E-01                                        
 81.0000      0.162000      0.237000E-01                                        
 82.0000      0.164000      0.240333E-01                                        
 83.0000      0.166000      0.243667E-01                                        
 84.0000      0.168000      0.247000E-01                                        
 85.0000      0.170000      0.250333E-01                                        
 86.0000      0.172000      0.253667E-01                                        
 87.0000      0.174000      0.257000E-01                                        
 88.0000      0.176000      0.260333E-01                                        
 89.0000      0.178000      0.263667E-01                                        
 90.0000      0.180000      0.267000E-01                                        
 91.0000      0.183333      0.271867E-01                                        
 92.0000      0.186667      0.276733E-01                                        
 93.0000      0.190000      0.281600E-01                                        
 94.0000      0.193333      0.286467E-01                                        
 95.0000      0.196667      0.291333E-01                                        
 96.0000      0.200000      0.296200E-01                                        
 97.0000      0.203333      0.301067E-01                                        
 98.0000      0.206667      0.305933E-01                                        
 99.0000      0.210000      0.310800E-01                                        
 100.000      0.213333      0.315667E-01                                        
 101.000      0.216667      0.320533E-01                                        
 102.000      0.220000      0.325400E-01                                        
 103.000      0.223333      0.330267E-01                                        
 104.000      0.226667      0.335133E-01                                        
 105.000      0.230000      0.340000E-01                                        
 106.000      0.233333      0.345667E-01                                        
 107.000      0.236667      0.351333E-01                                        
 108.000      0.240000      0.357000E-01                                        
 109.000      0.243333      0.362667E-01                                        
 110.000      0.246667      0.368333E-01                                        
 111.000      0.250000      0.374000E-01                                        
 112.000      0.253333      0.379667E-01                                        
 113.000      0.256667      0.385333E-01                                        
 114.000      0.260000      0.391000E-01                                        
 115.000      0.263333      0.396667E-01                                        
 116.000      0.266667      0.402333E-01                                        
 117.000      0.270000      0.408000E-01                                        
 118.000      0.273333      0.413667E-01                                        
 119.000      0.276667      0.419333E-01                                        
 120.000      0.280000      0.425000E-01                                        
 121.000      0.292667      0.431667E-01                                        
 122.000      0.305333      0.438333E-01                                        
 123.000      0.318000      0.445000E-01                                        
 124.000      0.330667      0.451667E-01                                        
 125.000      0.343333      0.458333E-01                                        
 126.000      0.356000      0.465000E-01                                        
 127.000      0.368667      0.471667E-01                                        
 128.000      0.381333      0.478333E-01                                        
 129.000      0.394000      0.485000E-01                                        
 130.000      0.406667      0.491667E-01                                        
 131.000      0.419333      0.498333E-01                                        
 132.000      0.432000      0.505000E-01                                        
 133.000      0.444667      0.511667E-01                                        
 134.000      0.457333      0.518333E-01                                        
 135.000      0.470000      0.525000E-01                                        
 136.000      0.488667      0.534200E-01                                        
 137.000      0.507333      0.543400E-01                                        
 138.000      0.526000      0.552600E-01                                        
 139.000      0.544667      0.561800E-01                                        
 140.000      0.563333      0.571000E-01                                        
 141.000      0.582000      0.580200E-01                                        
 142.000      0.600667      0.589400E-01                                        
 143.000      0.619333      0.598600E-01                                        
 144.000      0.638000      0.607800E-01                                        
 145.000      0.656667      0.617000E-01                                        
 146.000      0.675333      0.626200E-01                                        
 147.000      0.694000      0.635400E-01                                        
 148.000      0.712667      0.644600E-01                                        
 149.000      0.731333      0.653800E-01                                        
 150.000      0.750000      0.663000E-01                                        
 151.000      0.762667      0.678267E-01                                        
 152.000      0.775333      0.693533E-01                                        
 153.000      0.788000      0.708800E-01                                        
 154.000      0.800667      0.724067E-01                                        
 155.000      0.813333      0.739333E-01                                        
 156.000      0.826000      0.754600E-01                                        
 157.000      0.838667      0.769867E-01                                        
 158.000      0.851333      0.785133E-01                                        
 159.000      0.864000      0.800400E-01                                        
 160.000      0.876667      0.815667E-01                                        
 161.000      0.889333      0.830933E-01                                        
 162.000      0.902000      0.846200E-01                                        
 163.000      0.914667      0.861467E-01                                        
 164.000      0.927333      0.876733E-01                                        
 165.000      0.940000      0.892000E-01                                        
 166.000      0.946000      0.921600E-01                                        
 167.000      0.952000      0.951200E-01                                        
 168.000      0.958000      0.980800E-01                                        
 169.000      0.964000      0.101040                                            
 170.000      0.970000      0.104000                                            
 171.000      0.976000      0.106960                                            
 172.000      0.982000      0.109920                                            
 173.000      0.988000      0.112880                                            
 174.000      0.994000      0.115840                                            
 175.000       1.00000      0.118800                                            
 176.000       1.00600      0.121760                                            
 177.000       1.01200      0.124720                                            
 178.000       1.01800      0.127680                                            
 179.000       1.02400      0.130640                                            
 180.000       1.03000      0.133600                                            
 181.000       1.03600      0.138153                                            
 182.000       1.04200      0.142707                                            
 183.000       1.04800      0.147260                                            
 184.000       1.05400      0.151813                                            
 185.000       1.06000      0.156367                                            
 186.000       1.06600      0.160920                                            
 187.000       1.07200      0.165473                                            
 188.000       1.07800      0.170027                                            
 189.000       1.08400      0.174580                                            
 190.000       1.09000      0.179133                                            
 191.000       1.09600      0.183687                                            
 192.000       1.10200      0.188240                                            
 193.000       1.10800      0.192793                                            
 194.000       1.11400      0.197347                                            
 195.000       1.12000      0.201900                                            
 196.000       1.13000      0.207680                                            
 197.000       1.14000      0.213460                                            
 198.000       1.15000      0.219240                                            
 199.000       1.16000      0.225020                                            
 200.000       1.17000      0.230800                                            
 201.000       1.18000      0.236580                                            
 202.000       1.19000      0.242360                                            
 203.000       1.20000      0.248140                                            
 204.000       1.21000      0.253920                                            
 205.000       1.22000      0.259700                                            
 206.000       1.23000      0.265480                                            
 207.000       1.24000      0.271260                                            
 208.000       1.25000      0.277040                                            
 209.000       1.26000      0.282820                                            
 210.000       1.27000      0.288600                                            
 211.000       1.30400      0.294500                                            
 212.000       1.33800      0.300400                                            
 213.000       1.37200      0.306300                                            
 214.000       1.40600      0.312200                                            
 215.000       1.44000      0.318100                                            
 216.000       1.47400      0.324000                                            
 217.000       1.50800      0.329900                                            
 218.000       1.54200      0.335800                                            
 219.000       1.57600      0.341700                                            
 220.000       1.61000      0.347600                                            
 221.000       1.64400      0.353500                                            
 222.000       1.67800      0.359400                                            
 223.000       1.71200      0.365300                                            
 224.000       1.74600      0.371200                                            
 225.000       1.78000      0.377100                                            
 226.000       1.78933      0.382807                                            
 227.000       1.79867      0.388513                                            
 228.000       1.80800      0.394220                                            
 229.000       1.81733      0.399927                                            
 230.000       1.82667      0.405633                                            
 231.000       1.83600      0.411340                                            
 232.000       1.84533      0.417047                                            
 233.000       1.85467      0.422753                                            
 234.000       1.86400      0.428460                                            
 235.000       1.87333      0.434167                                            
 236.000       1.88267      0.439873                                            
 237.000       1.89200      0.445580                                            
 238.000       1.90133      0.451287                                            
 239.000       1.91067      0.456993                                            
